fSW (MHz),I(IN),I(OUT),V(OUT),V(IN),A_T,A_B
50,-0.0148905,0.00698044,1.85E+00,1,0.01,0.01
55,-0.0162506,0.00761397,1.85E+00,1,0.01,0.01
60,-0.0175523,0.00821882,1.85E+00,1,0.01,0.01
65,-0.0187903,0.00879091,1.85E+00,1,0.01,0.01
70,-0.0199604,0.0093297,1.85E+00,1,0.01,0.01
75,-0.021061,0.00983347,1.85E+00,1,0.01,0.01
80,-0.0220925,0.0103025,1.85E+00,1,0.01,0.01
85,-0.0230551,0.0107375,1.85E+00,1,0.01,0.01
90,-0.0239519,0.0111401,1.85E+00,1,0.01,0.01
95,-0.0247859,0.0115101,1.85E+00,1,0.01,0.01
100,-0.0255612,0.0118508,1.85E+00,1,0.01,0.01
105,-0.0262787,0.0121641,1.85E+00,1,0.01,0.01
110,-0.0269451,0.0124504,1.85E+00,1,0.01,0.01
115,-0.0275623,0.0127129,1.85E+00,1,0.01,0.01
120,-0.0281353,0.0129522,1.85E+00,1,0.01,0.01
125,-0.028666,0.0131714,1.85E+00,1,0.01,0.01
130,-0.0291574,0.0133707,1.85E+00,1,0.01,0.01
135,-0.0296139,0.0135527,1.85E+00,1,0.01,0.01
140,-0.0300388,0.0137193,1.85E+00,1,0.01,0.01
145,-0.030433,0.0138687,1.85E+00,1,0.01,0.01
150,-0.0307988,0.0140058,1.85E+00,1,0.01,0.01
155,-0.0311399,0.0141302,1.85E+00,1,0.01,0.01
160,-0.031458,0.0142424,1.85E+00,1,0.01,0.01
165,-0.0317548,0.0143451,1.85E+00,1,0.01,0.01
170,-0.0320324,0.0144371,1.85E+00,1,0.01,0.01
175,-0.0322918,0.0145201,1.85E+00,1,0.01,0.01
180,-0.0325331,0.0145946,1.85E+00,1,0.01,0.01
185,-0.0327601,0.0146617,1.85E+00,1,0.01,0.01
190,-0.0329724,0.0147214,1.85E+00,1,0.01,0.01
195,-0.0331719,0.0147745,1.85E+00,1,0.01,0.01
200,-0.0333593,0.0148217,1.85E+00,1,0.01,0.01
205,-0.0335363,0.0148634,1.85E+00,1,0.01,0.01
210,-0.0337019,0.0149001,1.85E+00,1,0.01,0.01
215,-0.0338569,0.0149309,1.85E+00,1,0.01,0.01
220,-0.0340042,0.0149586,1.85E+00,1,0.01,0.01
225,-0.0341429,0.0149816,1.85E+00,1,0.01,0.01
230,-0.0342759,0.015001,1.85E+00,1,0.01,0.01
235,-0.0343983,0.015016,1.85E+00,1,0.01,0.01
240,-0.0345155,0.0150286,1.85E+00,1,0.01,0.01
245,-0.0346264,0.0150377,1.85E+00,1,0.01,0.01
250,-0.0347328,0.0150435,1.85E+00,1,0.01,0.01
50,-0.0151606,0.0052644,1.85E+00,1,0.05,0.05
55,-0.0165358,0.00572025,1.85E+00,1,0.05,0.05
60,-0.0178481,0.00614518,1.85E+00,1,0.05,0.05
65,-0.0190936,0.00653613,1.85E+00,1,0.05,0.05
70,-0.0202676,0.00689158,1.85E+00,1,0.05,0.05
75,-0.0213692,0.00721059,1.85E+00,1,0.05,0.05
80,-0.0223987,0.00749388,1.85E+00,1,0.05,0.05
85,-0.0233578,0.00774214,1.85E+00,1,0.05,0.05
90,-0.0242492,0.00795658,1.85E+00,1,0.05,0.05
95,-0.0250767,0.00813848,1.85E+00,1,0.05,0.05
100,-0.0258445,0.00829031,1.85E+00,1,0.05,0.05
105,-0.0265541,0.00841418,1.85E+00,1,0.05,0.05
110,-0.0272105,0.00851146,1.85E+00,1,0.05,0.05
115,-0.0278185,0.00858367,1.85E+00,1,0.05,0.05
120,-0.0283829,0.00863339,1.85E+00,1,0.05,0.05
125,-0.0289041,0.00866303,1.85E+00,1,0.05,0.05
130,-0.0293863,0.0086725,1.85E+00,1,0.05,0.05
135,-0.0298336,0.00866479,1.85E+00,1,0.05,0.05
140,-0.0302487,0.00864086,1.85E+00,1,0.05,0.05
145,-0.0306357,0.00860219,1.85E+00,1,0.05,0.05
150,-0.0309923,0.00854948,1.85E+00,1,0.05,0.05
155,-0.0313256,0.00848465,1.85E+00,1,0.05,0.05
160,-0.0316357,0.00840807,1.85E+00,1,0.05,0.05
165,-0.0319256,0.00832107,1.85E+00,1,0.05,0.05
170,-0.0321955,0.00822425,1.85E+00,1,0.05,0.05
175,-0.032447,0.00811953,1.85E+00,1,0.05,0.05
180,-0.0326814,0.00800485,1.85E+00,1,0.05,0.05
185,-0.0329033,0.00788346,1.85E+00,1,0.05,0.05
190,-0.0331085,0.00775523,1.85E+00,1,0.05,0.05
195,-0.0333015,0.0076203,1.85E+00,1,0.05,0.05
200,-0.0334833,0.00748026,1.85E+00,1,0.05,0.05
205,-0.0336562,0.00733342,1.85E+00,1,0.05,0.05
210,-0.0338154,0.00718218,1.85E+00,1,0.05,0.05
215,-0.0339652,0.00702607,1.85E+00,1,0.05,0.05
220,-0.0341099,0.00686635,1.85E+00,1,0.05,0.05
225,-0.0342423,0.00670159,1.85E+00,1,0.05,0.05
230,-0.0343687,0.00653334,1.85E+00,1,0.05,0.05
235,-0.0344889,0.00636153,1.85E+00,1,0.05,0.05
240,-0.0346042,0.00618695,1.85E+00,1,0.05,0.05
245,-0.034711,0.00600872,1.85E+00,1,0.05,0.05
250,-0.0348121,0.00582832,1.85E+00,1,0.05,0.05
50,-0.0143992,0.00698544,1.85E+00,1,0.01,0
55,-0.0157158,0.00762214,1.85E+00,1,0.01,0
60,-0.0169759,0.00823084,1.85E+00,1,0.01,0
65,-0.0181748,0.00880851,1.85E+00,1,0.01,0
70,-0.0193085,0.00935337,1.85E+00,1,0.01,0
75,-0.0203752,0.00986462,1.85E+00,1,0.01,0
80,-0.0213748,0.0103421,1.85E+00,1,0.01,0
85,-0.022308,0.0107871,1.85E+00,1,0.01,0
90,-0.0231785,0.0112004,1.85E+00,1,0.01,0
95,-0.0239882,0.0115828,1.85E+00,1,0.01,0
100,-0.024739,0.0119365,1.85E+00,1,0.01,0
105,-0.0254362,0.0122625,1.85E+00,1,0.01,0
110,-0.0260831,0.0125628,1.85E+00,1,0.01,0
115,-0.0266826,0.0128392,1.85E+00,1,0.01,0
120,-0.0272386,0.0130952,1.85E+00,1,0.01,0
125,-0.027755,0.0133314,1.85E+00,1,0.01,0
130,-0.0282325,0.0135462,1.85E+00,1,0.01,0
135,-0.0286758,0.0137455,1.85E+00,1,0.01,0
140,-0.0290881,0.0139292,1.85E+00,1,0.01,0
145,-0.0294727,0.0140995,1.85E+00,1,0.01,0
150,-0.0298291,0.0142535,1.85E+00,1,0.01,0
155,-0.0301611,0.0143967,1.85E+00,1,0.01,0
160,-0.0304706,0.0145289,1.85E+00,1,0.01,0
165,-0.0307588,0.0146491,1.85E+00,1,0.01,0
170,-0.0310284,0.0147636,1.85E+00,1,0.01,0
175,-0.0312803,0.0148666,1.85E+00,1,0.01,0
180,-0.0315161,0.0149604,1.85E+00,1,0.01,0
185,-0.0317356,0.0150474,1.85E+00,1,0.01,0
190,-0.0319434,0.015128,1.85E+00,1,0.01,0
195,-0.0321376,0.015201,1.85E+00,1,0.01,0
200,-0.0323199,0.0152714,1.85E+00,1,0.01,0
205,-0.0324914,0.0153343,1.85E+00,1,0.01,0
210,-0.0326526,0.0153899,1.85E+00,1,0.01,0
215,-0.0328044,0.015443,1.85E+00,1,0.01,0
220,-0.0329484,0.0154928,1.85E+00,1,0.01,0
225,-0.0330834,0.0155364,1.85E+00,1,0.01,0
230,-0.0332092,0.0155766,1.85E+00,1,0.01,0
235,-0.0333303,0.0156146,1.85E+00,1,0.01,0
240,-0.0334447,0.0156493,1.85E+00,1,0.01,0
245,-0.0335521,0.0156815,1.85E+00,1,0.01,0
250,-0.0336545,0.0157086,1.85E+00,1,0.01,0
50,-0.0127098,0.0052887,1.85E+00,1,0.05,0
55,-0.0138679,0.00576042,1.85E+00,1,0.05,0
60,-0.0149754,0.00620659,1.85E+00,1,0.05,0
65,-0.0160275,0.0066249,1.85E+00,1,0.05,0
70,-0.0170213,0.00701316,1.85E+00,1,0.05,0
75,-0.0179553,0.00737164,1.85E+00,1,0.05,0
80,-0.0188298,0.00769979,1.85E+00,1,0.05,0
85,-0.0196463,0.0079984,1.85E+00,1,0.05,0
90,-0.0204061,0.00826876,1.85E+00,1,0.05,0
95,-0.0211126,0.00851173,1.85E+00,1,0.05,0
100,-0.0217675,0.00872918,1.85E+00,1,0.05,0
105,-0.0223755,0.00892195,1.85E+00,1,0.05,0
110,-0.0229388,0.00909283,1.85E+00,1,0.05,0
115,-0.0234609,0.00924259,1.85E+00,1,0.05,0
120,-0.0239442,0.00937264,1.85E+00,1,0.05,0
125,-0.0243933,0.00948568,1.85E+00,1,0.05,0
130,-0.0248094,0.00958171,1.85E+00,1,0.05,0
135,-0.0251954,0.00966294,1.85E+00,1,0.05,0
140,-0.0255541,0.00972999,1.85E+00,1,0.05,0
145,-0.0258876,0.00978377,1.85E+00,1,0.05,0
150,-0.0261982,0.00982654,1.85E+00,1,0.05,0
155,-0.026487,0.00985822,1.85E+00,1,0.05,0
160,-0.0267563,0.00987974,1.85E+00,1,0.05,0
165,-0.0270073,0.00989263,1.85E+00,1,0.05,0
170,-0.0272418,0.00989778,1.85E+00,1,0.05,0
175,-0.0274611,0.00989442,1.85E+00,1,0.05,0
180,-0.0276678,0.0098832,1.85E+00,1,0.05,0
185,-0.0278599,0.00986651,1.85E+00,1,0.05,0
190,-0.0280406,0.00984314,1.85E+00,1,0.05,0
195,-0.0282094,0.00981474,1.85E+00,1,0.05,0
200,-0.0283683,0.00978104,1.85E+00,1,0.05,0
205,-0.0285196,0.0097416,1.85E+00,1,0.05,0
210,-0.0286591,0.00969944,1.85E+00,1,0.05,0
215,-0.0287935,0.00965249,1.85E+00,1,0.05,0
220,-0.0289189,0.00960132,1.85E+00,1,0.05,0
225,-0.0290381,0.00954685,1.85E+00,1,0.05,0
230,-0.0291491,0.00948938,1.85E+00,1,0.05,0
235,-0.0292573,0.00942877,1.85E+00,1,0.05,0
240,-0.0293579,0.0093652,1.85E+00,1,0.05,0
245,-0.0294531,0.0092991,1.85E+00,1,0.05,0
250,-0.0295454,0.00923088,1.85E+00,1,0.05,0
50,-0.0153132,0.00740537,1.85E+00,1,0,0.01
60,-0.0180536,0.00872599,1.85E+00,1,0,0.01
70,-0.0205335,0.00991652,1.85E+00,1,0,0.01
80,-0.0227305,0.010966,1.85E+00,1,0,0.01
90,-0.0246487,0.0118763,1.85E+00,1,0,0.01
100,-0.0263091,0.0126575,1.85E+00,1,0,0.01
110,-0.0277373,0.0133232,1.85E+00,1,0,0.01
120,-0.0289665,0.01389,1.85E+00,1,0,0.01
130,-0.0300222,0.0143707,1.85E+00,1,0,0.01
140,-0.030932,0.0147794,1.85E+00,1,0,0.01
150,-0.0317202,0.0151254,1.85E+00,1,0,0.01
160,-0.0324001,0.015419,1.85E+00,1,0,0.01
170,-0.0329934,0.0156664,1.85E+00,1,0,0.01
180,-0.033511,0.0158788,1.85E+00,1,0,0.01
190,-0.0339648,0.0160587,1.85E+00,1,0,0.01
200,-0.0343651,0.0162139,1.85E+00,1,0,0.01
210,-0.0347192,0.0163424,1.85E+00,1,0,0.01
220,-0.0350337,0.0164531,1.85E+00,1,0,0.01
230,-0.0353121,0.0165471,1.85E+00,1,0,0.01
240,-0.0355616,0.0166248,1.85E+00,1,0,0.01
250,-0.035784,0.0166876,1.85E+00,1,0,0.01
50,-0.0172744,0.00738609,1.85E+00,1,0,0.05
60,-0.0203522,0.00867708,1.85E+00,1,0,0.05
70,-0.0231302,0.00982011,1.85E+00,1,0,0.05
80,-0.0255843,0.0108033,1.85E+00,1,0,0.05
90,-0.0277212,0.0116297,1.85E+00,1,0,0.05
100,-0.0295657,0.0123118,1.85E+00,1,0,0.05
110,-0.0311496,0.0128656,1.85E+00,1,0,0.05
120,-0.0325091,0.0133082,1.85E+00,1,0,0.05
130,-0.0336756,0.0136556,1.85E+00,1,0,0.05
140,-0.034678,0.0139221,1.85E+00,1,0,0.05
150,-0.0355431,0.0141201,1.85E+00,1,0,0.05
160,-0.0362909,0.0142609,1.85E+00,1,0,0.05
170,-0.0369405,0.0143534,1.85E+00,1,0,0.05
180,-0.0375065,0.0144045,1.85E+00,1,0,0.05
190,-0.0380022,0.0144207,1.85E+00,1,0,0.05
200,-0.0384375,0.0144069,1.85E+00,1,0,0.05
210,-0.038822,0.0143683,1.85E+00,1,0,0.05
220,-0.039162,0.014308,1.85E+00,1,0,0.05
230,-0.0394635,0.0142279,1.85E+00,1,0,0.05
240,-0.0397321,0.0141324,1.85E+00,1,0,0.05
250,-0.0399741,0.0140226,1.85E+00,1,0,0.05